time,plety,ECG,Patient ID
0.0,0.723124854130409,-1441792,3
0.015003192157107,0.718350732015002,-1441789,3
0.030006384314214,0.714720505981286,-1441792,3
0.045009576471321,0.713921227423384,-1310718,3
0.060012768628428,0.716037227566885,-1310719,3
0.075015960785535,0.716129705338994,-1179646,3
0.0900191529426419,0.713053488104852,-1441792,3
0.105022345099749,0.707043738995033,-1507326,3
0.120025537256856,0.695170985106475,-1441789,3
0.135028729413963,0.674719128131409,-1441791,3
0.15003192157107,0.642012809390747,-1572863,3
0.165035113728177,0.591194626463593,-1835007,3
0.180038305885284,0.522611165979845,-2424830,3
0.195041498042391,0.442649375356902,-2490366,3
0.210044690199498,0.356180961561653,-2031613,3
0.225047882356605,0.271031383717629,-2359295,3
0.240051074513712,0.192912420902003,-2031614,3
0.255054266670819,0.122450873589864,-2293759,3
0.270057458827926,0.0665848498001445,-1835008,3
0.285060650985033,0.0348801210847109,-1703935,3
0.30006384314214,0.0276424650099238,-1703933,3
0.315067035299247,0.0396428463813942,-2162687,3
0.330070227456354,0.0645265138390866,-327678,3
0.345073419613461,0.0893296826886799,1769472,3
0.360076611770568,0.108599674873759,1114114,3
0.375079803927675,0.126259463116295,-393215,3
0.390082996084782,0.135967402258875,-2686973,3
0.405086188241889,0.129196153232038,-3866621,3
0.420089380398996,0.105881576144173,-4259840,3
0.435092572556103,0.0675667178838755,-3407870,3
0.45009576471321,0.0196713350095439,-4521981,3
0.465098956870317,-0.0245770840139108,10289152,3
0.480102149027424,-0.0626347805868806,18808833,3
0.495105341184531,-0.101947392421964,1245187,3
0.510108533341638,-0.140321908948236,-14745599,3
0.525111725498745,-0.17540850193343,-5636093,3
0.540114917655852,-0.208249805177482,-4259838,3
0.555118109812959,-0.236174824122958,-3604478,3
0.570121301970066,-0.262194260979499,-3211263,3
0.585124494127173,-0.295004046470562,-3014653,3
0.60012768628428,-0.334625209502837,-2228221,3
0.615130878441387,-0.375932541643474,-2162686,3
0.630134070598494,-0.418272312225453,-2031613,3
0.645137262755601,-0.459147712869276,-1835006,3
0.660140454912708,-0.496380674364794,-1376253,3
0.675143647069815,-0.531483979911381,-720896,3
0.690146839226922,-0.561266050916934,-65534,3
0.705150031384029,-0.579696172218179,655362,3
0.720153223541136,-0.584392759086652,1310721,3
0.735156415698243,-0.573461640453184,1769474,3
0.75015960785535,-0.5437041503939,1507330,3
0.765162800012457,-0.492975856017592,1507331,3
0.780165992169564,-0.421205618137177,0,3
0.795169184326671,-0.330204973124844,-1179647,3
0.810172376483778,-0.223609332454124,-1376254,3
0.825175568640885,-0.107790639141478,-2097152,3
0.840178760797992,0.0132871057345547,-1638400,3
0.855181952955098,0.138272211041441,-1507325,3
0.870185145112206,0.261590443597197,-1966077,3
0.885188337269312,0.376337176562311,-1441790,3
0.90019152942642,0.479609922625524,-1114110,3
0.915194721583526,0.570246898868616,-1310717,3
0.930197913740633,0.647936318594986,-1048574,3
0.94520110589774,0.715608224059183,-1638398,3
0.960204298054847,0.770638825134863,-1572861,3
0.975207490211954,0.804333496709654,-1966077,3
0.990210682369061,0.812814062009336,-1572861,3
1.00521387452617,0.792156659798285,-1572864,3
1.02021706668328,0.741952937327922,-1769472,3
1.03522025884038,0.669886662498343,-1769471,3
1.05022345099749,0.580734802855205,-1769472,3
1.0652266431546,0.479916968616856,-1638397,3
1.0802298353117,0.375650688572501,-1769472,3
1.09523302746881,0.274588248055473,-1900544,3
1.11023621962592,0.188331533398301,-1769472,3
1.12523941178302,0.132954054415316,-1966080,3
1.14024260394013,0.110954659098536,-2162687,3
1.15524579609724,0.112854603847879,-2359296,3
1.17024898825435,0.131093765584334,-2490366,3
1.18525218041145,0.150480731743369,-1769469,3
1.20025537256856,0.164481597508399,-65533,3
1.21525856472567,0.180906797630849,1900546,3
1.23026175688277,0.192598970105696,1900546,3
1.24526494903988,0.188056058774084,196609,3
1.26026814119699,0.167785697700032,-2228224,3
1.27527133335409,0.133702387191088,-2752509,3
1.2902745255112,0.0923762528237578,-2686974,3
1.30527771766831,0.0607102813296385,-2555904,3
1.32028090982542,0.0405360874298256,-3211264,3
1.33528410198252,0.0197196741961509,3538947,3
1.35028729413963,-0.0016835831633189,20054017,3
1.36529048629674,-0.0243184151808226,-1966078,3
1.38029367845384,-0.0505323094932,-12451838,3
1.39529687061095,-0.0746754271694741,-4063229,3
1.41030006276806,-0.0994433948015532,-3276799,3
1.42530325492516,-0.133668661174643,-2752511,3
1.44030644708227,-0.176772261672366,-2686974,3
1.45530963923938,-0.225074907899589,-2359296,3
1.47031283139649,-0.277504494498735,-1900541,3
1.48531602355359,-0.329687385101178,-2162687,3
1.5003192157107,-0.380760579182843,-1769469,3
1.51532240786781,-0.43526667401009,-1441791,3
1.53032560002491,-0.492919609432711,-851968,3
1.54532879218202,-0.55241743963915,196609,3
1.56033198433913,-0.614085227758942,1310723,3
1.57533517649623,-0.676021080868604,1703936,3
1.59033836865334,-0.737763310493658,1900544,3
1.60534156081045,-0.800432253248217,2162690,3
1.62034475296756,-0.861646788933101,2359298,3
1.63534794512466,-0.916930868049284,1900546,3
1.65035113728177,-0.962180944721178,720898,3
1.66535432943888,-0.991550152216905,-917501,3
1.68035752159598,-1.0,-2031614,3
1.69536071375309,-0.98415594949645,-2818046,3
1.7103639059102,-0.93794247701809,-2818047,3
1.7253670980673,-0.85412370337517,-2555901,3
1.74037029022441,-0.733262088520184,-3014655,3
1.75537348238152,-0.582763136220503,-2686976,3
1.77037667453862,-0.410574264475152,-3211264,3
1.78537986669573,-0.230057444891653,-3997693,3
1.80038305885284,-0.0505336081971621,-4259839,3
1.81538625100995,0.125317520210556,-3604478,3
1.83038944316705,0.285235019871081,-3604479,3
1.84539263532416,0.413305006267082,-2818048,3
1.86039582748127,0.506215820061103,-2555902,3
1.87539901963837,0.568043616353105,-2818045,3
1.89040221179548,0.604483405969383,-2752509,3
1.90540540395259,0.630461068467494,-2752509,3
1.92040859610969,0.648779907937009,-2883584,3
1.9354117882668,0.647554166604172,-2555904,3
1.95041498042391,0.6293780901059,-2424829,3
1.96541817258102,0.599131297886224,-2031614,3
1.98042136473812,0.556551705684022,-2031614,3
1.99542455689523,0.50715326018808,-2162685,3
2.01042774905234,0.450197215549418,-1507326,3
2.02543094120944,0.377980009876575,-1179646,3
2.04043413336655,0.295924259115074,-851966,3
2.05543732552366,0.218006675997883,-655360,3
2.07044051768077,0.153368971435097,-393214,3
2.08544370983787,0.115203746985188,-983038,3
2.10044690199498,0.106646565070792,-1179647,3
2.11545009415209,0.115127396234898,-589823,3
2.13045328630919,0.135489881435279,196609,3
2.1454564784663,0.160572396982684,2359296,3
2.16045967062341,0.183087697077885,2949121,3
2.17546286278051,0.204783996139564,2293761,3
2.19046605493762,0.216835162663314,131073,3
2.20546924709473,0.204116229081703,-1572864,3
2.22047243925183,0.166473153465778,-1572864,3
2.23547563140894,0.111777764019718,-1769469,3
2.25047882356605,0.0479362630168844,-1114110,3
2.26548201572316,-0.0078566373298238,-2097152,3
2.28048520788026,-0.050619768744868,6029315,3
2.29548840003737,-0.0908069376478913,20185089,3
2.31049159219448,-0.124518455996386,-4194304,3
2.32549478435158,-0.145831704487065,-10551295,3
2.34049797650869,-0.156490093583011,-4521983,3
2.3555011686658,-0.154989775567529,-4128765,3
2.37050436082291,-0.146748125684214,-3080190,3
2.38550755298001,-0.146104961491535,-2424832,3
2.40051074513712,-0.155061072461711,-1703934,3
2.41551393729423,-0.167185171362824,-1966077,3
2.43051712945133,-0.184121920838441,-1835006,3
2.44552032160844,-0.205892826194553,-1769472,3
2.46052351376555,-0.231345734438851,-917501,3
2.47552670592265,-0.26393357343278,65539,3
2.49052989807976,-0.300679737363708,131073,3
2.50553309023687,-0.333724158737609,458755,3
2.52053628239397,-0.362076223498355,1966083,3
2.53553947455108,-0.387486536578684,2490371,3
2.55054266670819,-0.408467195599806,3211264,3
2.5655458588653,-0.4250812302828,3211265,3
2.5805490510224,-0.436180741926591,2818051,3
2.59555224317951,-0.437386670087454,1900547,3
2.61055543533662,-0.427554128533775,589825,3
2.62555862749372,-0.407014445579502,-655360,3
2.64056181965083,-0.372764147065292,-1179646,3
2.65556501180794,-0.320815901436196,-1900541,3
2.67056820396504,-0.24745982683111,-2031616,3
2.68557139612215,-0.147459522720964,-2162686,3
2.70057458827926,-0.0219510340997205,-1966079,3
2.71557778043637,0.120651677757269,-1310717,3
2.73058097259347,0.2734829898571,-1507325,3
2.74558416475058,0.426585393985367,-1769470,3
2.76058735690769,0.570960854079628,-1376254,3
2.77559054906479,0.702052384354951,-1900541,3
2.7905937412219,0.808216908999577,-2097151,3
2.80559693337901,0.874077422361884,-1966077,3
2.82060012553611,0.897192399199599,-2228224,3
2.83560331769322,0.884592445790598,-2818048,3
2.85060650985033,0.843540755703422,-2490366,3
2.86560970200744,0.789827081806622,-2490366,3
2.88061289416454,0.729535408350741,-2359294,3
2.89561608632165,0.655186503030794,-2162685,3
2.91061927847876,0.573923469350627,-2162685,3
2.92562247063586,0.49652570935089,-1966078,3
2.94062566279297,0.424272561260948,-1638397,3
2.95562885495008,0.359167241872152,-1638397,3
2.97063204710718,0.298383082061663,-2293758,3
2.98563523926429,0.230149826033509,-1900543,3
3.0006384314214,0.157322827833724,-1572863,3
3.01564162357851,0.0954114275985545,-1310718,3
3.03064481573561,0.050166347235293,-1310717,3
3.04564800789272,0.0292325936058648,-1441789,3
3.06065120004983,0.0355706591980335,-1572861,3
3.07565439220693,0.0586240522823538,-1245184,3
3.09065758436404,0.0958990963728359,524288,3
3.10566077652115,0.146671080469256,1703939,3
3.12066396867825,0.204510935612288,2490371,3
3.13566716083536,0.265762087510994,917507,3
3.15067035299247,0.321573578267662,-1310718,3
3.16567354514957,0.357036165182193,-1769471,3
3.18067673730668,0.369412736784799,-2097149,3
3.19567992946379,0.365441934622379,-1245182,3
3.2106831216209,0.348585945677254,-1966079,3
3.225686313778,0.327863732926702,2818050,3
3.24068950593511,0.304572174293694,19136512,3
3.25569269809222,0.26723160182254,786435,3
3.27069589024932,0.215480883051278,-11075583,3
3.28569908240643,0.151393950729444,-7274496,3
3.30070227456354,0.0741952650493125,-2883581,3
3.31570546672065,-0.010416840797423,-1572862,3
3.33070865887775,-0.101170516735846,-1245181,3
3.34571185103486,-0.200893071569061,-458750,3
3.36071504319197,-0.304105782713033,-327678,3
3.37571823534907,-0.401386506792642,-262141,3
3.39072142750618,-0.484258660936916,-196605,3
3.40572461966329,-0.540390200444218,-65534,3
3.42072781182039,-0.567467973630947,589826,3
3.4357310039775,-0.575569731603845,393217,3
3.45073419613461,-0.570104890572453,1310723,3
3.46573738829171,-0.560122474262341,1769474,3
3.48074058044882,-0.551584890331993,2031618,3
3.49574377260593,-0.540550951290385,2359298,3
3.51074696476304,-0.533695137730788,2097155,3
3.52575015692014,-0.542318112577291,1769474,3
3.54075334907725,-0.565056197042878,1310721,3
3.55575654123436,-0.595166727040759,262145,3
3.57075973339146,-0.623950877568743,-983039,3
3.58576292554857,-0.63364287922623,-1769469,3
3.60076611770568,-0.617914478820698,-2097150,3
3.61576930986279,-0.583308413529396,-2228222,3
3.63077250201989,-0.523659101907743,-1835008,3
3.645775694177,-0.431291092374139,-1769472,3
3.66077888633411,-0.310207423334064,-1572864,3
3.67578207849121,-0.167334854382196,-1245184,3
3.69078527064832,-0.0161840284287748,-1179646,3
3.70578846280543,0.118225513659184,-1310718,3
3.72079165496253,0.223440762236541,-1245184,3
3.73579484711964,0.298359521184372,-1310720,3
3.75079803927675,0.32769413461798,-1441790,3
3.76580123143386,0.294205180137008,-1376253,3
3.78080442359096,0.198614504147949,-1310719,3
3.79580761574807,0.0517281567701931,-393216,3
3.81081080790518,-0.129110670839601,2,3
3.82581400006228,-0.310596536248077,131072,3
3.84081719221939,-0.476652979577872,851968,3
3.8558203843765,-0.63035710505069,1441792,3
3.8708235765336,-0.751423055039751,1835011,3
3.88582676869071,-0.814514799087635,2097152,3
3.90082996084782,-0.81753119455128,2490368,3
3.91583315300492,-0.767401573774016,2686979,3
3.93083634516203,-0.679549621979829,1966082,3
3.94583953731914,-0.589891462209215,1179651,3
3.96084272947625,-0.507262580840157,0,3
3.97584592163335,-0.412524456208493,-1572864,3
3.99084911379046,-0.314651928708939,-1769471,3
4.00585230594757,-0.225242683703646,-2359294,3
4.02085549810467,-0.142647974944213,-2228223,3
4.03585869026178,-0.0722528268329925,-1900542,3
4.05086188241889,-0.0051719606523391,-1835005,3
4.06586507457599,0.0847640604610126,-1245181,3
4.0808682667331,0.196901308551499,-1048574,3
4.09587145889021,0.311646206563237,-1048575,3
4.11087465104732,0.4252508006834,-1114110,3
4.12587784320442,0.529385951434939,-1638400,3
4.14088103536153,0.618207053433385,-1638397,3
4.15588422751864,0.701144394292706,-1900542,3
4.17088741967574,0.772918129329484,-2424830,3
4.18589061183285,0.820604720898982,-2949119,3
4.20089380398996,0.843073438064575,-3145727,3
4.21589699614706,0.839489798988218,-2752511,3
4.23090018830417,0.808414843491069,-2752512,3
4.24590338046128,0.754045675579955,-3145726,3
4.26090657261839,0.678234749167711,-3145727,3
4.27590976477549,0.58101494202888,-2949117,3
4.2909129569326,0.468565714217196,-2818045,3
4.30591614908971,0.350070917717264,-3080192,3
4.32091934124681,0.233348305218506,-3080189,3
4.33592253340392,0.127611688646587,-2555901,3
4.35092572556103,0.0448928332449892,-2818047,3
4.36592891771814,-0.0015691216144934,-2359294,3
4.38093210987524,-0.0093623126741316,-1835006,3
4.39593530203235,0.012389178623866,-1507328,3
4.41093849418946,0.0545444034296862,-1048575,3
4.42594168634656,0.100386841680686,1179651,3
4.44094487850367,0.141215513707968,2424833,3
4.45594807066078,0.181332096245102,1572867,3
4.47095126281788,0.21000886100323,-1638397,3
4.48595445497499,0.211705513495186,-2686973,3
4.5009576471321,0.186023814935338,-2883583,3
4.5159608392892,0.137909422500691,-3080190,3
4.53096403144631,0.0764688774531384,-1966080,3
4.54596722360342,0.023067164721499,-2293759,3
4.56097041576053,-0.01811969264765,4521986,3
4.57597360791763,-0.0608817594443346,20971520,3
4.59097680007474,-0.102444546046504,-2293760,3
4.60597999223185,-0.139240152374597,-12779517,3
4.62098318438895,-0.172956787194715,-4194303,3
4.63598637654606,-0.197778907326846,-3080192,3
4.65098956870317,-0.217377539586096,-2359296,3
4.66599276086027,-0.24449919839092,-2031613,3
4.68099595301738,-0.277789228495926,-1900544,3
4.69599914517449,-0.308301110977935,-1638399,3
4.7110023373316,-0.333249919864889,-1376253,3
4.7260055294887,-0.346179706554766,-1441790,3
4.74100872164581,-0.34562556256483,-1179646,3
4.75601191380292,-0.340203078439359,-1376256,3
4.77101510596002,-0.33111510010415,-589823,3
4.78601829811713,-0.317991235585155,393219,3
4.80102149027424,-0.304211162484142,1572864,3
4.81602468243134,-0.29018725577313,2293763,3
4.83102787458845,-0.279618281464635,2359299,3
4.84603106674556,-0.279992960942176,2293760,3
4.86103425890267,-0.290324148971635,1769473,3
4.87603745105977,-0.303342114179376,524288,3
4.89104064321688,-0.313380150266111,-458750,3
4.90604383537399,-0.310637472514047,-1769469,3
4.92104702753109,-0.28914899961059,-2162687,3
4.9360502196882,-0.249805983796691,-2359293,3
4.95105341184531,-0.185921961124533,-2228223,3
4.96605660400241,-0.0883705297870232,-2949117,3
4.98105979615952,0.0407618173048936,-2621437,3
4.99606298831663,0.192857531616524,-2031614,3
5.01106618047374,0.356988639905696,-1703936,3
5.02606937263084,0.513679383753209,-1769470,3
5.04107256478795,0.651908507118137,-1835008,3
5.05607575694506,0.770908069135312,-2228221,3
5.07107894910216,0.857116278712236,-2359293,3
5.08608214125927,0.893741071382161,-1835007,3
5.10108533341638,0.879806987052046,-1900541,3
5.11608852557348,0.82273248078357,-2097152,3
5.13109171773059,0.734210874394551,-2359293,3
5.1460949098877,0.638899721681071,-1900543,3
5.16109810204481,0.546291370839301,-1900542,3
5.17610129420191,0.448716106468136,-2621440,3
5.19110448635902,0.357566007861858,-2162686,3
5.20610767851613,0.28771534875157,-1638398,3
5.22111087067323,0.239970116085165,-2162688,3
5.23611406283034,0.213749035356412,-2228221,3
5.25111725498745,0.200819344708647,-1703935,3
5.26612044714455,0.17912343973349,-1769472,3
5.28112363930166,0.146642432648586,-1441791,3
5.29612683145877,0.119351009845216,-1769469,3
5.31113002361587,0.0967681283320576,-1900544,3
5.32613321577298,0.0790875013555002,-1638399,3
5.34113640793009,0.0686202179343962,-1310717,3
5.3561396000872,0.0570116956230217,655363,3
5.3711427922443,0.0466452491179706,1638403,3
5.38614598440141,0.0478460014839747,1507330,3
5.40114917655852,0.0572007309986935,-196608,3
5.41615236871562,0.0657377898151339,-1179647,3
5.43115556087273,0.0678575236953924,-2097149,3
5.44615875302984,0.0528233574499365,-1507326,3
5.46116194518694,0.0184796268017888,-1900543,3
5.47616513734405,-0.0252920552596927,2228227,3
5.49116832950116,-0.0760212306015592,20447235,3
5.50617152165827,-0.130545213295186,1441795,3
5.52117471381537,-0.185190632996172,-12779519,3
5.53617790597248,-0.243308385825596,-4587517,3
5.55118109812959,-0.301355074821442,-3407870,3
5.56618429028669,-0.351558996318759,-2621439,3
5.5811874824438,-0.393766417420883,-2621440,3
5.59619067460091,-0.43015998583025,-2293759,3
5.61119386675802,-0.462940199045955,-1507326,3
5.62619705891512,-0.498775116333703,-1376255,3
5.64120025107223,-0.537988555426169,-1048574,3
5.65620344322934,-0.573740102839103,-1048575,3
5.67120663538644,-0.605102505597544,-393213,3
5.68620982754355,-0.631254669478324,262144,3
5.70121301970066,-0.650495682370934,917506,3
5.71621621185776,-0.665186939953293,1572867,3
5.73121940401487,-0.674090637565862,2031619,3
5.74622259617198,-0.673371924218279,2359296,3
5.76122578832908,-0.663078265564539,2031617,3
5.77622898048619,-0.644108991282642,1769473,3
5.7912321726433,-0.616721346193312,655363,3
5.80623536480041,-0.58279322743441,-983039,3
5.82123855695751,-0.542293308545643,-1769471,3
5.83624174911462,-0.492841512971509,-2031613,3
5.85124494127173,-0.433985781005966,-2752509,3
5.86624813342883,-0.365363706152847,-2883583,3
5.88125132558594,-0.286522210270488,-2097150,3
5.89625451774305,-0.198531374461454,-1900543,3
5.91125770990015,-0.101451942761707,-2097151,3
5.92626090205726,0.0052387438480094,-2228221,3
5.94126409421437,0.1190956294624,-2555902,3
5.95626728637148,0.235534492121356,-2621438,3
5.97127047852858,0.349616512355957,-2949120,3
5.98627367068569,0.454393757451441,-3276799,3
6.0012768628428,0.543809529335853,-2621440,3
6.0162800549999,0.613368568693699,-2555904,3
6.03128324715701,0.65545238605381,-3014654,3
6.04628643931412,0.661045637072089,-2883584,3
6.06128963147122,0.629580411420696,-2686976,3
6.07629282362833,0.567926036218451,-2555903,3
6.09129601578544,0.483422285573067,-2621440,3
6.10629920794255,0.389268864299027,-2359295,3
6.12130240009965,0.293665930377066,-1703936,3
6.13630559225676,0.196907928862614,-1769469,3
6.15130878441387,0.109780374735014,-1572863,3
6.16631197657097,0.0467609666357746,-1114111,3
6.18131516872808,0.0097323454744186,-1835007,3
6.19631836088519,-0.0059277091668338,-1638400,3
6.21132155304229,-0.0070597776837308,-786431,3
6.2263247451994,-0.0100509536020349,-589823,3
6.24132793735651,-0.0185143415798964,-1245181,3
6.25633112951362,-0.0213112385119211,262146,3
6.27133432167072,-0.0216082364368321,2293761,3
6.28633751382783,-0.0243947292330011,2621441,3
6.30134070598494,-0.0283909701417184,589827,3
6.31634389814204,-0.0367553960863492,-2228223,3
6.33134709029915,-0.0458090748263476,-3014656,3
6.34635028245626,-0.0437885169335997,-2949120,3
6.36135347461336,-0.0319931936890815,-2490368,3
6.37635666677047,-0.0205261347045221,-1376256,3
6.39135985892758,-0.0127944356902104,-1769470,3
6.40636305108469,-0.0150791847410564,15335424,3
6.42136624324179,-0.0295719302677051,11993088,3
6.4363694353989,-0.0484774130602552,-12517376,3
6.45137262755601,-0.0712028565976054,-7340029,3
6.46637581971311,-0.0990091748708635,-3866624,3
