time,plety,ECG,Patient ID
0.0,-15.2042125761655,851965,14
0.015001796467833,-15.1164053754993,851967,14
0.0300035929356659,-14.5408206263711,1245182,14
0.0450053894034989,-15.4326443457442,1179648,14
0.0600071858713319,-17.9625747568984,1310719,14
0.0750089823391649,-20.7875321480668,1114112,14
0.0900107788069978,-24.1316082405502,1245182,14
0.105012575274831,-28.0870983975931,1245183,14
0.120014371742664,-32.2100775928035,1114112,14
0.135016168210497,-36.4177111758326,1048575,14
0.15001796467833,-40.3337557271413,917504,14
0.165019761146163,-43.3135577623505,786432,14
0.180021557613996,-45.2443996480153,851965,14
0.195023354081829,-46.4072591972144,786432,14
0.210025150549662,-46.9406883181021,655360,14
0.225026947017495,-47.2208988969428,589824,14
0.240028743485328,-47.3180845388326,1179646,14
0.255030539953161,-46.7876235534571,983040,14
0.270032336420994,-45.6486389658268,983038,14
0.285034132888827,-44.0306590068017,1572862,14
0.300035929356659,-41.8378906767753,1310718,14
0.315037725824492,-39.1199673844456,1376254,14
0.330039522292325,-35.7515192054105,1376254,14
0.345041318760158,-31.3723529768453,1376253,14
0.360043115227991,-25.9953029441385,1179646,14
0.375044911695824,-19.8790447343853,917502,14
0.390046708163657,-13.1074093318654,720896,14
0.40504850463149,-5.85754324719467,524287,14
0.420050301099323,1.65492406996255,589823,14
0.435052097567156,9.31930907325699,786430,14
0.450053894034989,16.8038894597424,851967,14
0.465055690502822,23.6150785877392,786432,14
0.480057486970655,29.3668882428424,589821,14
0.495059283438488,33.6558729883252,589823,14
0.510061079906321,35.9618852240501,917503,14
0.525062876374154,35.7466537713676,917503,14
0.540064672841987,32.9918255604784,917502,14
0.55506646930982,28.2241774346803,1310718,14
0.570068265777653,22.0183684362507,1114109,14
0.585070062245486,15.3348632209191,1310720,14
0.600071858713319,8.84436576052036,1048576,14
0.615073655181152,2.71550781239437,851968,14
0.630075451648985,-2.15495782469699,1048573,14
0.645077248116818,-4.58177868482812,1310718,14
0.660079044584651,-4.44467335296936,1179645,14
0.675080841052484,-2.29937634310222,917503,14
0.690082637520317,1.17398695286137,917502,14
0.70508443398815,4.52287732307485,786430,14
0.720086230455983,7.26017013749944,458751,14
0.735088026923816,10.105778626571,786430,14
0.750089823391649,12.5458296849633,1048574,14
0.765091619859482,13.837734673281,1048576,14
0.780093416327315,14.0440876420135,851968,14
0.795095212795148,13.1529736071303,851966,14
0.810097009262981,11.6694548608701,655359,14
0.825098805730814,10.9248900986996,589822,14
0.840100602198647,11.0373221927872,851968,14
0.85510239866648,11.1257252459049,458750,14
0.870104195134313,11.1934690036199,458750,14
0.885105991602146,11.1339000347411,2949118,14
0.900107788069979,10.7972377578152,3211262,14
0.915109584537811,10.6845911536256,-196611,14
0.930111381005644,10.6378593906819,-131075,14
0.945113177473477,10.063333310788,1245182,14
0.96011497394131,9.06325989163206,1245184,14
0.975116770409143,7.93349276435816,1114110,14
0.990118566876976,6.81957156380478,917502,14
1.00512036334481,6.13500918515305,983037,14
1.02012215981264,5.96525952378617,1245181,14
1.03512395628048,5.95294010355074,1179647,14
1.05012575274831,6.09807982198876,983038,14
1.06512754921614,6.43377451127526,589823,14
1.08012934568397,6.91199349192048,655358,14
1.09513114215181,7.70552417610297,720895,14
1.11013293861964,8.81157693990791,786429,14
1.12513473508747,10.0891862808411,1048573,14
1.14013653155531,11.4581619838549,1048574,14
1.15513832802314,12.7274857647566,851966,14
1.17014012449097,13.6721964605362,1048573,14
1.18514192095881,14.0626174838368,786432,14
1.20014371742664,13.5900032234619,655360,14
1.21514551389447,11.9071159196959,720893,14
1.2301473103623,8.59202137677998,458749,14
1.24514910683014,3.13311202459255,327677,14
1.26015090329797,-4.38453893413274,655360,14
1.2751526997658,-13.2419107536526,917502,14
1.29015449623364,-22.7510907170258,786431,14
1.30515629270147,-31.8466461223024,917503,14
1.3201580891693,-39.7340222087304,1245181,14
1.33515988563713,-46.1632526926442,1310718,14
1.35016168210497,-50.1324958083146,1179646,14
1.3651634785728,-50.3321933558158,1179648,14
1.38016527504063,-46.6810422386142,1048573,14
1.39516707150847,-39.9228569210239,1048573,14
1.4101688679763,-30.9405119654063,1376254,14
1.42517066444413,-21.5006158509094,917504,14
1.44017246091197,-12.3809622334434,851965,14
1.4551742573798,-3.07761282833325,1179646,14
1.47017605384763,5.48736516593717,1441791,14
1.48517785031546,12.0587021689964,1376254,14
1.5001796467833,16.5575823543879,1245183,14
1.51518144325113,19.13268126931,917504,14
1.53018323971896,20.4376339244943,1310717,14
1.5451850361868,22.1914179825493,1179647,14
1.56018683265463,24.6058353215617,917503,14
1.57518862912246,26.4668770003678,1048576,14
1.5901904255903,27.8839979161342,917501,14
1.60519222205813,28.9655693106574,786431,14
1.62019401852596,29.5212520559965,589824,14
1.63519581499379,30.0763740326309,1310720,14
1.65019761146163,30.3481604443991,983039,14
1.66519940792946,29.369713522039,1048574,14
1.68020120439729,27.3012981803266,1048575,14
1.69520300086513,24.8494766122065,1179647,14
1.71020479733296,22.3269429098939,983039,14
1.72520659380079,20.3985543553248,851967,14
1.74020839026863,19.2251916780034,851968,14
1.75521018673646,18.1119118183441,720896,14
1.77021198320429,16.9707612926804,655359,14
1.78521377967212,15.7822312095443,786431,14
1.80021557613996,14.3404618505929,786431,14
1.81521737260779,12.8173276024087,786430,14
1.83021916907562,11.0262984889892,851965,14
1.84522096554346,8.48093479214472,851968,14
1.86022276201129,5.2424156771283,983037,14
1.87522455847912,1.63837016194187,917502,14
1.89022635494695,-2.0723941587253,1114109,14
1.90522815141479,-5.35483587448109,917504,14
1.92022994788262,-8.00816954712714,917503,14
1.93523174435045,-10.2884978553312,3276797,14
1.95023354081829,-12.0324224906912,2490367,14
1.96523533728612,-13.0090127288768,720894,14
1.98023713375395,-13.278240451867,-393219,14
1.99523893022179,-12.8766026505689,1048575,14
2.01024072668962,-12.0351592950276,1245181,14
2.02524252315745,-11.2810128773,1114112,14
2.04024431962528,-10.8005254243522,1048574,14
2.05524611609312,-10.5240706790707,1245182,14
2.07024791256095,-10.6912919790527,1310717,14
2.08524970902878,-11.5505333085194,1310719,14
2.10025150549662,-13.0996804003032,1376253,14
2.11525330196445,-15.2679907910554,1441790,14
2.13025509843228,-17.821107641638,1310718,14
2.14525689490012,-20.2545477193142,1114110,14
2.16025869136795,-22.4018152451458,1245184,14
2.17526048783578,-24.4083587373024,1703933,14
2.19026228430361,-26.0711988633206,1572863,14
2.20526408077145,-27.1532846660854,1507326,14
2.22026587723928,-27.6658142797677,1245183,14
2.23526767370711,-27.6411969726067,917504,14
2.25026947017495,-27.2828346781099,786430,14
2.26527126664278,-27.0640496083278,786429,14
2.28027306311061,-27.0791640828058,720895,14
2.29527485957845,-27.092252431519,851966,14
2.31027665604628,-27.1863847174562,851968,14
2.32527845251411,-27.4368917507923,983040,14
2.34028024898194,-27.7796271804191,1179645,14
2.35528204544978,-28.2416454178679,1179645,14
2.37028384191761,-28.6428433024183,917502,14
2.38528563838544,-28.5829386250019,917503,14
2.40028743485328,-27.9623492541878,851967,14
2.41528923132111,-26.8716450875843,786429,14
2.43029102778894,-25.2015634637541,917502,14
2.44529282425677,-22.8792849563098,655358,14
2.46029462072461,-19.9217307916659,851965,14
2.47529641719244,-16.305768878086,1048574,14
2.49029821366027,-12.1660525087777,917502,14
2.50530001012811,-7.80001210674627,917502,14
2.52030180659594,-3.30068197975467,1048575,14
2.53530360306377,1.37302177921647,1048576,14
2.55030539953161,6.09515135674376,851967,14
2.56530719599944,10.7442300832453,917502,14
2.58030899246727,15.2538859383819,851968,14
2.5953107889351,19.50937447176,851967,14
2.61031258540294,23.4909480752111,983038,14
2.62531438187077,27.27984775064,917503,14
2.6403161783386,30.7723044083606,917502,14
2.65531797480644,33.7293067111514,851966,14
2.67031977127427,36.0100447943048,851966,14
2.6853215677421,37.4364213019243,786430,14
2.70032336420994,37.9666520339177,851965,14
2.71532516067777,37.7940612788689,851968,14
2.7303269571456,37.0146529863657,917501,14
2.74532875361343,35.7532499947187,917502,14
2.76033055008127,34.1827186019811,786430,14
2.7753323465491,32.3935109193939,786431,14
2.79033414301693,30.6300180129839,983037,14
2.80533593948477,29.254210665288,1114110,14
2.8203377359526,28.3174142681739,851965,14
2.83533953242043,27.6328459515888,655360,14
2.85034132888827,27.0503555295902,917502,14
2.8653431253561,26.2435516982275,786431,14
2.88034492182393,25.10969411432,524286,14
2.89534671829176,23.882010058903,458751,14
2.9103485147596,22.4689594147997,458752,14
2.92535031122743,20.7041843152244,589823,14
2.94035210769526,18.6432001467399,786431,14
2.9553539041631,16.3212261647911,655360,14
2.97035570063093,13.8993346352542,851967,14
2.98535749709876,11.7514308751649,1179646,14
3.0003592935666,9.94757077026734,393213,14
3.01536109003443,8.30883491525352,2162688,14
3.03036288650226,6.87798878240553,3473406,14
3.04536468297009,5.66943530936017,-327683,14
3.06036647943793,4.6330854010824,-589826,14
3.07536827590576,3.82183162203252,983038,14
3.09037007237359,3.11887400230493,1245183,14
3.10537186884143,2.26030318291,1245182,14
3.12037366530926,1.16204965899385,983037,14
3.13537546177709,-0.183785092043518,983039,14
3.15037725824492,-1.89501669613479,917504,14
3.16537905471276,-4.06366613546985,1245181,14
3.18038085118059,-6.65508674374882,1310717,14
3.19538264764842,-9.5567145835629,1179647,14
3.21038444411626,-12.5670830873066,1310717,14
3.22538624058409,-15.3392806443657,1245184,14
3.24038803705192,-17.6745640513822,1245183,14
3.25538983351976,-19.5257442643867,1179645,14
3.27039162998759,-20.6358073227216,1245182,14
3.28539342645542,-20.6975306340001,1310718,14
3.30039522292325,-19.7636408536979,1114111,14
3.31539701939109,-18.142028013449,917504,14
3.33039881585892,-16.2195924089382,655358,14
3.34540061232675,-14.6701409938408,655359,14
3.36040240879459,-13.8726485707323,786429,14
3.37540420526242,-13.8323503390431,851965,14
3.39040600173025,-15.010253416548,917501,14
3.40540779819809,-17.9856920285556,1114112,14
3.42040959466592,-22.6779888899912,983040,14
3.43541139113375,-28.6078208054819,1310718,14
3.45041318760158,-35.1317067090174,1179647,14
3.46541498406942,-41.0745255552954,1245181,14
3.48041678053725,-45.8268333499308,1376253,14
3.49541857700508,-49.4513171091515,1048574,14
3.51042037347292,-51.2082793033749,983038,14
3.52542216994075,-50.1738851406448,983039,14
3.54042396640858,-46.3283125289952,1245183,14
3.55542576287642,-40.0696292665428,1114110,14
3.57042755934425,-32.0898950151079,1179647,14
3.58542935581208,-23.8522002089154,1048574,14
3.60043115227991,-15.8890116730651,851968,14
3.61543294874775,-7.73122246937481,851967,14
3.63043474521558,0.0010708608025105,1048574,14
3.64543654168341,6.52307305263957,917503,14
3.66043833815125,11.7639288116802,786431,14
3.67544013461908,15.6298218187904,786432,14
3.69044193108691,18.5011167213504,720896,14
3.70544372755474,21.5139429759438,720893,14
3.72044552402258,24.6880318377065,917501,14
3.73544732049041,27.0990609906918,655358,14
3.75044911695824,28.6722065279482,851965,14
3.76545091342608,29.2559841190303,917502,14
3.78045270989391,28.7317422350642,851965,14
3.79545450636174,27.6867335301505,524288,14
3.81045630282958,26.1167893881299,655357,14
3.82545809929741,23.6747508321463,720896,14
3.84045989576524,20.6925469997196,720895,14
3.85546169223307,17.6832791938166,851967,14
3.87046348870091,15.1378370372037,786431,14
3.88546528516874,13.8867474683096,786431,14
3.90046708163657,14.0704327994386,1179647,14
3.91546887810441,15.0419834595344,1179645,14
3.93047067457224,16.5250428015738,1048576,14
3.94547247104007,18.0407737679691,1245184,14
3.96047426750791,19.2788513344529,1179645,14
3.97547606397574,20.5508677504887,983038,14
3.99047786044357,21.537168539942,1179646,14
4.0054796569114,21.6376707765925,1114111,14
4.02048145337924,20.8748376802702,917502,14
4.03548324984707,19.4325452917834,1048574,14
4.0504850463149,17.5983847656518,1179647,14
4.06548684278274,16.0990777727577,1507325,14
4.08048863925057,15.0494233057085,851966,14
4.0954904357184,13.9295294094117,1245182,14
4.11049223218623,12.7785625209252,3473407,14
4.12549402865407,11.6429695482514,786432,14
4.1404958251219,10.4558563066536,-851968,14
4.15549762158973,9.4814957618244,786429,14
4.17049941805757,8.64689410276641,1376255,14
4.1855012145254,7.60778358691099,1376254,14
4.20050301099323,6.44000596155488,1114111,14
4.21550480746107,5.37952043559176,1048573,14
4.2305066039289,4.53662707354919,1179645,14
4.24550840039673,4.16382912564031,1310719,14
4.26051019686457,4.26226979138618,1507326,14
4.2755119933324,4.47457724592701,1310720,14
4.29051378980023,4.6518304552542,1572864,14
4.30551558626806,4.62124393937489,1376256,14
4.3205173827359,4.16249507260906,1441790,14
4.33551917920373,3.22536907380859,1703936,14
4.35052097567156,1.5579356745924,1507326,14
4.3655227721394,-1.23233247277742,1376256,14
4.38052456860723,-5.1139798416313,1245181,14
4.39552636507506,-9.75221245380703,1048575,14
4.4105281615429,-14.8236542350889,917501,14
4.42552995801073,-19.747330061692,851967,14
4.44053175447856,-24.1854443178149,1048575,14
4.45553355094639,-28.1680659779828,1179648,14
4.47053534741423,-31.2882638663518,1114112,14
4.48553714388206,-33.0067364936054,983037,14
4.50053894034989,-33.3329963668556,1310719,14
4.51554073681773,-32.5602914436339,1376253,14
4.53054253328556,-31.1088575490405,1179645,14
4.54554432975339,-29.8298719924819,1114110,14
4.56054612622122,-29.075089966914,1114110,14
4.57554792268906,-28.6251017201014,983037,14
4.59054971915689,-28.8913343017162,983040,14
4.60555151562472,-30.4007313628325,1179645,14
4.62055331209256,-33.0498601527279,1245181,14
4.63555510856039,-36.510196665758,1376255,14
4.65055690502822,-40.1862534943516,1310720,14
4.66555870149606,-42.9101402301701,1507328,14
4.68056049796389,-44.2035125221907,1769469,14
4.69556229443172,-44.276439368904,1376254,14
4.71056409089955,-42.5806005409004,1179648,14
4.72556588736739,-38.4749067898267,1310718,14
4.74056768383522,-32.0423905646914,1245183,14
4.75556948030305,-23.6073653273229,1245182,14
4.77057127677089,-13.8647863890979,1310717,14
4.78557307323872,-4.21259938520113,1310717,14
4.80057486970655,4.78087832737113,1310718,14
4.81557666617439,13.3467056812854,1245183,14
4.83057846264222,20.7995516906517,1245181,14
4.84558025911005,26.337846362402,1114110,14
4.86058205557788,29.8940502808805,1376255,14
4.87558385204572,31.552960019476,1769471,14
4.89058564851355,31.8207404735306,1507326,14
4.90558744498138,31.9493419441826,1507325,14
4.92058924144922,32.1916072000263,1310719,14
4.93559103791705,31.8814715765499,1310718,14
4.95059283438488,31.2856535277941,1114109,14
4.96559463085271,30.7081042148308,983039,14
4.98059642732055,30.0972499694289,1114111,14
4.99559822378838,29.7131266902809,1310720,14
5.01060002025621,29.2996895490433,1310718,14
5.02560181672405,28.048775318082,1048576,14
5.04060361319188,26.0446199613018,983040,14
5.05560540965971,23.9580569552885,983039,14
5.07060720612755,21.9915220261237,1114109,14
5.08560900259538,20.5337384288244,917503,14
5.10061079906321,19.7249207824357,655358,14
5.11561259553104,19.0576048901232,720894,14
5.13061439199888,18.5093104334427,655358,14
5.14561618846671,18.2032129847522,458750,14
5.16061798493454,17.9508417589814,327680,14
5.17561978140238,17.6892084496577,458751,14
5.19062157787021,17.1840115946882,655360,14
5.20562337433804,15.9408835366316,393216,14
5.22062517080588,13.9642444504707,589821,14
5.23562696727371,11.65044295317,720894,14
5.25062876374154,9.23901141394532,393216,14
5.26563056020937,7.17285394290799,1703934,14
5.28063235667721,5.66572482963236,3670013,14
5.29563415314504,4.49088229804969,458750,14
5.31063594961287,3.83750693140696,-851968,14
5.32563774608071,4.01579138911193,720895,14
5.34063954254854,4.9554449887585,983038,14
5.35564133901637,6.51426012604971,851968,14
5.37064313548421,8.407339311172,851966,14
5.38564493195204,10.0309649266142,1114110,14
5.40064672841987,11.1528821013534,1179645,14
5.4156485248877,11.8848556514899,1245181,14
5.43065032135554,11.9578894880948,1245182,14
5.44565211782337,11.0704546373529,1179647,14
5.4606539142912,9.23792015118179,1572862,14
5.47565571075904,6.55106295388092,2031614,14
5.49065750722687,3.29163591423666,1376254,14
5.5056593036947,0.0673332568642624,1572862,14
5.52066110016254,-2.90653434185307,1572861,14
5.53566289663037,-5.77157658421798,1507327,14
5.5506646930982,-8.25983615282561,983040,14
5.56566648956603,-10.0611130778277,851965,14
5.58066828603387,-11.2085482173488,917503,14
5.5956700825017,-11.8218229065186,720894,14
5.61067187896953,-12.2185999393758,720893,14
5.62567367543737,-13.0661596207834,655358,14
5.6406754719052,-14.5761994673056,589823,14
5.65567726837303,-16.535832956258,393213,14
5.67067906484086,-19.1756873911313,655357,14
5.6856808613087,-22.7537731642563,720895,14
5.70068265777653,-27.1394925820947,524287,14
5.71568445424436,-32.1059910527678,786429,14
5.7306862507122,-37.1748575280207,917503,14
5.74568804718003,-41.4573134055052,786429,14
5.76068984364786,-44.5403113739108,655360,14
5.7756916401157,-46.4376095971039,524287,14
5.79069343658353,-46.6544587031784,589824,14
5.80569523305136,-44.639536693047,589823,14
5.82069702951919,-40.4053700526937,589821,14
5.83569882598703,-34.2301440184588,655358,14
5.85070062245486,-26.6438226615086,524288,14
5.86570241892269,-18.7070378829716,786431,14
5.88070421539053,-10.8820936320531,720893,14
5.89570601185836,-3.00985943578422,589822,14
5.91070780832619,4.3283894703124,524286,14
5.92570960479403,10.4186927490807,589821,14
5.94071140126186,15.1537681321671,655358,14
5.95571319772969,18.5686221377056,720895,14
5.97071499419752,20.9908336186058,917503,14
5.98571679066536,23.3288381365626,917504,14
6.00071858713319,25.6644504618752,1114109,14
6.01572038360102,27.2912998988919,1114112,14
6.03072218006886,28.2458106157211,1114112,14
6.04572397653669,28.5759470621715,983037,14
6.06072577300452,28.2010819650361,917503,14
6.07572756947235,27.4826355983545,917501,14
6.09072936594019,26.346334340977,917501,14
6.10573116240802,24.369504413801,851967,14
6.12073295887585,21.774746764863,983040,14
6.13573475534369,19.0955939872256,1376253,14
6.15073655181152,16.7019233396951,1048576,14
6.16573834827935,15.2039586545947,917501,14
6.18074014474719,14.7198994826712,1114111,14
6.19574194121502,14.6788078899094,1310717,14
6.21074373768285,14.8672795230398,1179647,14
6.22574553415068,14.9809654370097,1114110,14
6.24074733061852,14.7353792225069,983037,14
6.25574912708635,14.2766144906595,851967,14
6.27075092355418,13.2904772349149,851968,14
6.28575272002202,11.204390786503,983039,14
6.30075451648985,8.05156822836026,1114109,14
6.31575631295768,4.14977921198237,1179645,14
6.33075810942552,-0.158518774943797,1441789,14
6.34575990589335,-4.14608602131206,655359,14
6.36076170236118,-7.57461941979003,2621437,14
6.37576349882901,-10.7974084849513,3276798,14
6.39076529529685,-13.6044393222597,-524291,14
6.40576709176468,-15.7113444021767,-655360,14
6.42076888823251,-17.1723645649208,1048574,14
6.43577068470035,-17.9643723002908,983040,14
6.45077248116818,-18.3381052416835,786432,14
6.46577427763601,-18.9225978515208,851968,14
6.48077607410384,-19.8524418472647,851967,14
6.49577787057168,-20.9009030952346,917502,14
6.51077966703951,-22.2180413478542,1179647,14
6.52578146350734,-23.9218988776563,1048575,14
6.54078325997518,-25.9880578746662,1114110,14
6.55578505644301,-28.5037455903933,1441790,14
6.57078685291084,-31.3057631335351,917502,14
6.58578864937868,-33.9771795180912,1048573,14
6.60079044584651,-36.4593102806814,1310719,14
6.61579224231434,-38.9202677466896,1245182,14
6.63079403878217,-41.2925982527005,1114111,14
6.64579583525001,-43.5520438644465,1245184,14
6.66079763171784,-45.6922448447536,1179646,14
